# wvl (nm) Kappa_real Kappa_imag
2.100000000000000000e+02 5.390907162829576332e-04 -3.453077865535116053e-04
2.110000000000000000e+02 5.553795169735784715e-04 -2.462457995575704052e-04
2.120000000000000000e+02 4.333426573325334288e-04 -3.799981045757689865e-04
2.130000000000000000e+02 2.198218314747629374e-04 -6.115559544603791763e-04
2.140000000000000000e+02 -4.627738490995000030e-05 -8.434307530545835825e-04
2.150000000000000000e+02 -3.333173529399531630e-04 -1.011307487220425815e-03
2.160000000000000000e+02 -6.162360166902245470e-04 -1.079550597076514833e-03
2.170000000000000000e+02 -8.758300066024462052e-04 -1.036562204170000988e-03
2.180000000000000000e+02 -1.098013224055341668e-03 -8.899929332026819450e-04
2.190000000000000000e+02 -1.264198794496523707e-03 -6.751197961162720392e-04
2.200000000000000000e+02 -1.417331587401186909e-03 -4.084830040208099018e-04
2.210000000000000000e+02 -1.495937800166076328e-03 -1.011937995572793312e-04
2.220000000000000000e+02 -1.469030652216244412e-03 1.886345248053052212e-04
2.230000000000000000e+02 -1.415386106747972038e-03 4.162617441890095337e-04
2.240000000000000000e+02 -1.282432652980073241e-03 5.827474243670253485e-04
2.250000000000000000e+02 -1.045650535928806723e-03 6.902362051106113259e-04
2.260000000000000000e+02 -7.698953894920363208e-04 7.458926111177626838e-04
2.270000000000000000e+02 -4.610896171600946522e-04 7.353263706801083663e-04
2.280000000000000000e+02 -1.370369528949070713e-04 7.107519810088295349e-04
2.290000000000000000e+02 1.257233790951495342e-04 6.542198575276475699e-04
2.300000000000000000e+02 3.043993365471073047e-04 5.389830108363066101e-04
2.310000000000000000e+02 4.306336872728584514e-04 4.086270017719898385e-04
2.320000000000000000e+02 4.915456093497178438e-04 2.714123171213871566e-04
2.330000000000000000e+02 4.630406373333987961e-04 1.303423029972598844e-04
2.340000000000000000e+02 4.149492877539210744e-04 -6.669445141431737986e-06
2.350000000000000000e+02 3.821570346890133742e-04 -1.358114401697067049e-04
2.360000000000000000e+02 3.296792894747979587e-04 -2.368141627604649767e-04
2.370000000000000000e+02 2.577044697629589311e-04 -2.935931328702334037e-04
2.380000000000000000e+02 1.874908076637823800e-04 -3.119466057815150771e-04
2.390000000000000000e+02 1.327803774611017215e-04 -2.997296642683233876e-04
2.400000000000000000e+02 9.176270318698267526e-05 -2.669357215271446091e-04
2.410000000000000000e+02 8.096729819316202928e-05 -2.124139775065138033e-04
2.420000000000000000e+02 8.027472431068164739e-05 -1.495664573318322731e-04
2.430000000000000000e+02 6.676182416459477216e-05 -1.007142503217543170e-04
2.440000000000000000e+02 6.425083769476472718e-05 -5.457773599054023718e-05
2.450000000000000000e+02 6.516402212656261439e-05 -2.111700349971056630e-05
2.460000000000000000e+02 6.282715567620285866e-05 -8.009730456321393195e-06
2.470000000000000000e+02 6.812836910219460470e-05 3.040673461814129672e-06
2.480000000000000000e+02 7.962600106208459687e-05 4.946279147149117855e-06
2.490000000000000000e+02 7.683215702285123630e-05 5.056864957347452559e-06
2.500000000000000000e+02 8.098820694676497271e-05 8.915894720721143478e-06
2.510000000000000000e+02 8.909995534669103352e-05 1.911574601582366961e-05
2.520000000000000000e+02 9.398292569155506184e-05 3.371061691888833700e-05
2.530000000000000000e+02 9.090823418106146918e-05 4.991781784441601342e-05
2.540000000000000000e+02 7.802733147521033431e-05 6.391437312173557379e-05
2.550000000000000000e+02 6.892829736707662921e-05 7.310329551263035179e-05
2.560000000000000000e+02 5.368619992648877631e-05 8.216576746529602308e-05
2.570000000000000000e+02 4.471875676949140671e-05 8.903286383192838952e-05
2.580000000000000000e+02 4.515431463865345095e-05 9.375709322572679750e-05
2.590000000000000000e+02 3.734963674125857375e-05 8.832212240026959284e-05
2.600000000000000000e+02 3.074338339697706244e-05 8.612120493533288854e-05
2.610000000000000000e+02 2.327818298725731460e-05 8.757018450366859947e-05
2.620000000000000000e+02 1.204152071387131558e-05 8.958744943805832463e-05
2.630000000000000000e+02 3.504646639612850112e-06 9.349874076717296241e-05
2.640000000000000000e+02 -6.635734271466467149e-06 9.045277421383372970e-05
2.650000000000000000e+02 -1.602913089765591959e-05 8.281755711539793955e-05
2.660000000000000000e+02 -2.115130985096184507e-05 8.074435298368020644e-05
2.670000000000000000e+02 -2.587810459813333187e-05 8.226048443115552408e-05
2.680000000000000000e+02 -2.063455133695163754e-05 8.085623410184531693e-05
2.690000000000000000e+02 -1.663386256999736028e-05 8.116523659203647560e-05
2.700000000000000000e+02 -2.621405974495101128e-05 7.794422683677944676e-05
2.710000000000000000e+02 -3.920164906935980271e-05 7.687493149585143692e-05
2.720000000000000000e+02 -6.088063701555818162e-05 7.530168235546923661e-05
2.730000000000000000e+02 -7.128523665557499845e-05 6.806797991253040218e-05
2.740000000000000000e+02 -6.517212211593897552e-05 5.964653725869341675e-05
2.750000000000000000e+02 -6.321563604635295323e-05 4.983617124036761114e-05
2.760000000000000000e+02 -5.738470364348290136e-05 4.671835500314759480e-05
2.770000000000000000e+02 -5.081429286819195610e-05 4.729412324258468767e-05
2.780000000000000000e+02 -4.742491244701158877e-05 4.509332505285993043e-05
2.790000000000000000e+02 -4.412133134751730846e-05 4.120988558712382040e-05
2.800000000000000000e+02 -4.408227455887949971e-05 4.352444406898321695e-05
2.810000000000000000e+02 -4.189327143599148835e-05 3.731580334248206580e-05
2.820000000000000000e+02 -4.217313380434947447e-05 2.045232292659762937e-05
2.830000000000000000e+02 -5.242268901975091636e-05 3.180803872305333108e-06
2.840000000000000000e+02 -6.298823738601728387e-05 -1.330479661907450141e-05
2.850000000000000000e+02 -6.542282446648371621e-05 -2.483326356127083472e-05
2.860000000000000000e+02 -6.013662843411255707e-05 -3.596988691788115228e-05
2.870000000000000000e+02 -5.401862725400319055e-05 -4.044178322096507477e-05
2.880000000000000000e+02 -5.908796264129179886e-05 -4.399138858831296174e-05
2.890000000000000000e+02 -6.116362781059568935e-05 -5.279119549715443146e-05
2.900000000000000000e+02 -7.063497742879227008e-05 -6.251956754705632381e-05
2.910000000000000000e+02 -8.932199716629611651e-05 -8.000782995910705043e-05
2.920000000000000000e+02 -9.707573533521924388e-05 -9.547253362853493845e-05
2.930000000000000000e+02 -1.104282232600696864e-04 -1.138262369138288098e-04
2.940000000000000000e+02 -1.188832730195238521e-04 -1.329184548952239912e-04
2.950000000000000000e+02 -1.194230928797306924e-04 -1.514584683432956900e-04
2.960000000000000000e+02 -1.103805677517235477e-04 -1.680025763206164150e-04
2.970000000000000000e+02 -9.222464490904548119e-05 -1.810525253163920982e-04
2.980000000000000000e+02 -6.836111244659523944e-05 -1.891559718426600722e-04
2.990000000000000000e+02 -4.594876766351400893e-05 -1.910089773369720112e-04
3.000000000000000000e+02 -3.673097530730386781e-05 -1.855605383231716352e-04
